Created as New Dataset,Sample 5345 By Administrator Date Wednesday, June 18 2025
cm-1,%T
4000.00,99.99
3999.00,99.99
3998.00,100.00
3997.00,100.00
3996.00,100.00
3995.00,99.99
3994.00,99.99
3993.00,99.98
3992.00,99.98
3991.00,99.97
3990.00,99.96
3989.00,99.95
3988.00,99.95
3987.00,99.95
3986.00,99.95
3985.00,99.96
3984.00,99.96
3983.00,99.96
3982.00,99.96
3981.00,99.97
3980.00,99.97
3979.00,99.98
3978.00,99.97
3977.00,99.97
3976.00,99.96
3975.00,99.94
3974.00,99.91
3973.00,99.89
3972.00,99.88
3971.00,99.88
3970.00,99.89
3969.00,99.91
3968.00,99.94
3967.00,99.95
3966.00,99.95
3965.00,99.94
3964.00,99.92
3963.00,99.90
3962.00,99.89
3961.00,99.90
3960.00,99.91
3959.00,99.92
3958.00,99.91
3957.00,99.91
3956.00,99.91
3955.00,99.92
3954.00,99.92
3953.00,99.92
3952.00,99.91
3951.00,99.90
3950.00,99.89
3949.00,99.88
3948.00,99.87
3947.00,99.87
3946.00,99.88
3945.00,99.88
3944.00,99.87
3943.00,99.86
3942.00,99.85
3941.00,99.84
3940.00,99.84
3939.00,99.85
3938.00,99.86
3937.00,99.88
3936.00,99.89
3935.00,99.88
3934.00,99.87
3933.00,99.84
3932.00,99.83
3931.00,99.82
3930.00,99.83
3929.00,99.85
3928.00,99.86
3927.00,99.86
3926.00,99.86
3925.00,99.85
3924.00,99.84
3923.00,99.83
3922.00,99.82
3921.00,99.81
3920.00,99.80
3919.00,99.78
3918.00,99.76
3917.00,99.75
3916.00,99.76
3915.00,99.78
3914.00,99.80
3913.00,99.81
3912.00,99.81
3911.00,99.80
3910.00,99.78
3909.00,99.77
3908.00,99.77
3907.00,99.76
3906.00,99.76
3905.00,99.75
3904.00,99.75
3903.00,99.75
3902.00,99.75
3901.00,99.75
3900.00,99.75
3899.00,99.74
3898.00,99.74
3897.00,99.73
3896.00,99.73
3895.00,99.72
3894.00,99.71
3893.00,99.70
3892.00,99.71
3891.00,99.73
3890.00,99.75
3889.00,99.76
3888.00,99.74
3887.00,99.72
3886.00,99.69
3885.00,99.68
3884.00,99.68
3883.00,99.67
3882.00,99.66
3881.00,99.64
3880.00,99.63
3879.00,99.64
3878.00,99.65
3877.00,99.67
3876.00,99.68
3875.00,99.69
3874.00,99.69
3873.00,99.69
3872.00,99.68
3871.00,99.68
3870.00,99.67
3869.00,99.66
3868.00,99.65
3867.00,99.65
3866.00,99.66
3865.00,99.67
3864.00,99.67
3863.00,99.66
3862.00,99.65
3861.00,99.65
3860.00,99.64
3859.00,99.64
3858.00,99.65
3857.00,99.66
3856.00,99.66
3855.00,99.66
3854.00,99.67
3853.00,99.66
3852.00,99.65
3851.00,99.64
3850.00,99.64
3849.00,99.64
3848.00,99.64
3847.00,99.62
3846.00,99.61
3845.00,99.59
3844.00,99.58
3843.00,99.58
3842.00,99.58
3841.00,99.58
3840.00,99.58
3839.00,99.59
3838.00,99.59
3837.00,99.60
3836.00,99.60
3835.00,99.59
3834.00,99.58
3833.00,99.58
3832.00,99.59
3831.00,99.61
3830.00,99.61
3829.00,99.60
3828.00,99.57
3827.00,99.54
3826.00,99.52
3825.00,99.51
3824.00,99.51
3823.00,99.51
3822.00,99.52
3821.00,99.53
3820.00,99.53
3819.00,99.53
3818.00,99.53
3817.00,99.55
3816.00,99.55
3815.00,99.54
3814.00,99.51
3813.00,99.49
3812.00,99.49
3811.00,99.50
3810.00,99.50
3809.00,99.49
3808.00,99.50
3807.00,99.52
3806.00,99.53
3805.00,99.52
3804.00,99.50
3803.00,99.49
3802.00,99.49
3801.00,99.49
3800.00,99.47
3799.00,99.44
3798.00,99.43
3797.00,99.43
3796.00,99.44
3795.00,99.44
3794.00,99.44
3793.00,99.43
3792.00,99.42
3791.00,99.42
3790.00,99.41
3789.00,99.40
3788.00,99.38
3787.00,99.36
3786.00,99.36
3785.00,99.36
3784.00,99.37
3783.00,99.38
3782.00,99.37
3781.00,99.37
3780.00,99.37
3779.00,99.36
3778.00,99.35
3777.00,99.35
3776.00,99.36
3775.00,99.37
3774.00,99.39
3773.00,99.39
3772.00,99.38
3771.00,99.38
3770.00,99.37
3769.00,99.37
3768.00,99.36
3767.00,99.34
3766.00,99.34
3765.00,99.34
3764.00,99.34
3763.00,99.33
3762.00,99.33
3761.00,99.33
3760.00,99.33
3759.00,99.32
3758.00,99.32
3757.00,99.32
3756.00,99.32
3755.00,99.32
3754.00,99.32
3753.00,99.32
3752.00,99.34
3751.00,99.35
3750.00,99.37
3749.00,99.39
3748.00,99.40
3747.00,99.39
3746.00,99.39
3745.00,99.40
3744.00,99.40
3743.00,99.39
3742.00,99.38
3741.00,99.36
3740.00,99.35
3739.00,99.33
3738.00,99.31
3737.00,99.31
3736.00,99.32
3735.00,99.33
3734.00,99.32
3733.00,99.32
3732.00,99.33
3731.00,99.34
3730.00,99.33
3729.00,99.32
3728.00,99.31
3727.00,99.29
3726.00,99.27
3725.00,99.24
3724.00,99.22
3723.00,99.20
3722.00,99.20
3721.00,99.20
3720.00,99.21
3719.00,99.22
3718.00,99.22
3717.00,99.21
3716.00,99.18
3715.00,99.16
3714.00,99.15
3713.00,99.15
3712.00,99.17
3711.00,99.20
3710.00,99.21
3709.00,99.21
3708.00,99.20
3707.00,99.18
3706.00,99.15
3705.00,99.13
3704.00,99.12
3703.00,99.12
3702.00,99.11
3701.00,99.09
3700.00,99.08
3699.00,99.06
3698.00,99.05
3697.00,99.04
3696.00,99.04
3695.00,99.03
3694.00,99.01
3693.00,98.99
3692.00,98.97
3691.00,98.94
3690.00,98.91
3689.00,98.89
3688.00,98.88
3687.00,98.88
3686.00,98.87
3685.00,98.85
3684.00,98.83
3683.00,98.81
3682.00,98.80
3681.00,98.80
3680.00,98.81
3679.00,98.81
3678.00,98.80
3677.00,98.78
3676.00,98.76
3675.00,98.74
3674.00,98.71
3673.00,98.69
3672.00,98.68
3671.00,98.65
3670.00,98.61
3669.00,98.55
3668.00,98.50
3667.00,98.47
3666.00,98.46
3665.00,98.45
3664.00,98.43
3663.00,98.40
3662.00,98.37
3661.00,98.34
3660.00,98.32
3659.00,98.30
3658.00,98.28
3657.00,98.26
3656.00,98.26
3655.00,98.25
3654.00,98.24
3653.00,98.23
3652.00,98.21
3651.00,98.19
3650.00,98.17
3649.00,98.15
3648.00,98.13
3647.00,98.12
3646.00,98.10
3645.00,98.08
3644.00,98.06
3643.00,98.03
3642.00,98.00
3641.00,97.97
3640.00,97.94
3639.00,97.92
3638.00,97.92
3637.00,97.91
3636.00,97.91
3635.00,97.90
3634.00,97.89
3633.00,97.88
3632.00,97.88
3631.00,97.87
3630.00,97.87
3629.00,97.85
3628.00,97.82
3627.00,97.78
3626.00,97.75
3625.00,97.73
3624.00,97.70
3623.00,97.67
3622.00,97.65
3621.00,97.63
3620.00,97.62
3619.00,97.62
3618.00,97.62
3617.00,97.60
3616.00,97.59
3615.00,97.57
3614.00,97.55
3613.00,97.53
3612.00,97.52
3611.00,97.51
3610.00,97.50
3609.00,97.49
3608.00,97.47
3607.00,97.44
3606.00,97.41
3605.00,97.39
3604.00,97.37
3603.00,97.34
3602.00,97.30
3601.00,97.27
3600.00,97.24
3599.00,97.22
3598.00,97.21
3597.00,97.20
3596.00,97.17
3595.00,97.13
3594.00,97.10
3593.00,97.09
3592.00,97.09
3591.00,97.10
3590.00,97.09
3589.00,97.06
3588.00,97.00
3587.00,96.94
3586.00,96.90
3585.00,96.89
3584.00,96.88
3583.00,96.87
3582.00,96.86
3581.00,96.84
3580.00,96.82
3579.00,96.80
3578.00,96.76
3577.00,96.73
3576.00,96.71
3575.00,96.71
3574.00,96.70
3573.00,96.69
3572.00,96.67
3571.00,96.64
3570.00,96.60
3569.00,96.55
3568.00,96.49
3567.00,96.44
3566.00,96.40
3565.00,96.38
3564.00,96.36
3563.00,96.35
3562.00,96.32
3561.00,96.29
3560.00,96.27
3559.00,96.26
3558.00,96.27
3557.00,96.26
3556.00,96.25
3555.00,96.21
3554.00,96.17
3553.00,96.14
3552.00,96.11
3551.00,96.10
3550.00,96.09
3549.00,96.07
3548.00,96.04
3547.00,96.01
3546.00,95.97
3545.00,95.96
3544.00,95.96
3543.00,95.97
3542.00,95.97
3541.00,95.96
3540.00,95.94
3539.00,95.91
3538.00,95.87
3537.00,95.83
3536.00,95.80
3535.00,95.78
3534.00,95.78
3533.00,95.77
3532.00,95.77
3531.00,95.76
3530.00,95.75
3529.00,95.74
3528.00,95.72
3527.00,95.70
3526.00,95.68
3525.00,95.64
3524.00,95.61
3523.00,95.59
3522.00,95.58
3521.00,95.58
3520.00,95.57
3519.00,95.56
3518.00,95.56
3517.00,95.55
3516.00,95.54
3515.00,95.52
3514.00,95.50
3513.00,95.48
3512.00,95.46
3511.00,95.45
3510.00,95.43
3509.00,95.41
3508.00,95.39
3507.00,95.37
3506.00,95.34
3505.00,95.32
3504.00,95.30
3503.00,95.28
3502.00,95.27
3501.00,95.26
3500.00,95.24
3499.00,95.21
3498.00,95.17
3497.00,95.13
3496.00,95.10
3495.00,95.08
3494.00,95.06
3493.00,95.04
3492.00,95.03
3491.00,95.01
3490.00,95.00
3489.00,94.99
3488.00,94.97
3487.00,94.94
3486.00,94.92
3485.00,94.88
3484.00,94.84
3483.00,94.78
3482.00,94.72
3481.00,94.67
3480.00,94.64
3479.00,94.64
3478.00,94.64
3477.00,94.63
3476.00,94.62
3475.00,94.61
3474.00,94.59
3473.00,94.56
3472.00,94.54
3471.00,94.52
3470.00,94.52
3469.00,94.52
3468.00,94.53
3467.00,94.53
3466.00,94.53
3465.00,94.52
3464.00,94.51
3463.00,94.49
3462.00,94.48
3461.00,94.46
3460.00,94.45
3459.00,94.45
3458.00,94.44
3457.00,94.43
3456.00,94.42
3455.00,94.41
3454.00,94.41
3453.00,94.41
3452.00,94.41
3451.00,94.41
3450.00,94.40
3449.00,94.38
3448.00,94.35
3447.00,94.32
3446.00,94.29
3445.00,94.28
3444.00,94.28
3443.00,94.29
3442.00,94.29
3441.00,94.29
3440.00,94.28
3439.00,94.27
3438.00,94.27
3437.00,94.27
3436.00,94.27
3435.00,94.27
3434.00,94.27
3433.00,94.27
3432.00,94.26
3431.00,94.26
3430.00,94.26
3429.00,94.25
3428.00,94.24
3427.00,94.24
3426.00,94.24
3425.00,94.24
3424.00,94.25
3423.00,94.24
3422.00,94.24
3421.00,94.23
3420.00,94.23
3419.00,94.23
3418.00,94.24
3417.00,94.24
3416.00,94.25
3415.00,94.26
3414.00,94.27
3413.00,94.27
3412.00,94.27
3411.00,94.27
3410.00,94.28
3409.00,94.28
3408.00,94.27
3407.00,94.27
3406.00,94.27
3405.00,94.28
3404.00,94.28
3403.00,94.29
3402.00,94.30
3401.00,94.32
3400.00,94.33
3399.00,94.32
3398.00,94.31
3397.00,94.29
3396.00,94.29
3395.00,94.29
3394.00,94.30
3393.00,94.30
3392.00,94.29
3391.00,94.28
3390.00,94.27
3389.00,94.28
3388.00,94.28
3387.00,94.30
3386.00,94.30
3385.00,94.29
3384.00,94.28
3383.00,94.27
3382.00,94.26
3381.00,94.25
3380.00,94.23
3379.00,94.22
3378.00,94.22
3377.00,94.23
3376.00,94.25
3375.00,94.27
3374.00,94.28
3373.00,94.27
3372.00,94.25
3371.00,94.23
3370.00,94.22
3369.00,94.22
3368.00,94.21
3367.00,94.20
3366.00,94.20
3365.00,94.21
3364.00,94.22
3363.00,94.24
3362.00,94.25
3361.00,94.25
3360.00,94.25
3359.00,94.26
3358.00,94.28
3357.00,94.29
3356.00,94.28
3355.00,94.27
3354.00,94.26
3353.00,94.25
3352.00,94.25
3351.00,94.26
3350.00,94.28
3349.00,94.30
3348.00,94.32
3347.00,94.34
3346.00,94.34
3345.00,94.34
3344.00,94.34
3343.00,94.35
3342.00,94.35
3341.00,94.36
3340.00,94.36
3339.00,94.37
3338.00,94.38
3337.00,94.40
3336.00,94.41
3335.00,94.43
3334.00,94.45
3333.00,94.46
3332.00,94.47
3331.00,94.47
3330.00,94.46
3329.00,94.45
3328.00,94.45
3327.00,94.45
3326.00,94.47
3325.00,94.49
3324.00,94.52
3323.00,94.53
3322.00,94.54
3321.00,94.55
3320.00,94.56
3319.00,94.56
3318.00,94.57
3317.00,94.57
3316.00,94.58
3315.00,94.59
3314.00,94.60
3313.00,94.60
3312.00,94.59
3311.00,94.58
3310.00,94.57
3309.00,94.56
3308.00,94.56
3307.00,94.58
3306.00,94.59
3305.00,94.60
3304.00,94.60
3303.00,94.62
3302.00,94.65
3301.00,94.68
3300.00,94.69
3299.00,94.69
3298.00,94.68
3297.00,94.67
3296.00,94.67
3295.00,94.66
3294.00,94.66
3293.00,94.65
3292.00,94.65
3291.00,94.66
3290.00,94.68
3289.00,94.71
3288.00,94.73
3287.00,94.74
3286.00,94.74
3285.00,94.74
3284.00,94.73
3283.00,94.72
3282.00,94.71
3281.00,94.72
3280.00,94.73
3279.00,94.75
3278.00,94.76
3277.00,94.75
3276.00,94.73
3275.00,94.71
3274.00,94.70
3273.00,94.68
3272.00,94.66
3271.00,94.66
3270.00,94.66
3269.00,94.67
3268.00,94.69
3267.00,94.71
3266.00,94.73
3265.00,94.74
3264.00,94.74
3263.00,94.75
3262.00,94.75
3261.00,94.75
3260.00,94.74
3259.00,94.73
3258.00,94.72
3257.00,94.72
3256.00,94.73
3255.00,94.73
3254.00,94.73
3253.00,94.73
3252.00,94.72
3251.00,94.71
3250.00,94.71
3249.00,94.71
3248.00,94.70
3247.00,94.71
3246.00,94.72
3245.00,94.74
3244.00,94.76
3243.00,94.77
3242.00,94.77
3241.00,94.76
3240.00,94.75
3239.00,94.74
3238.00,94.74
3237.00,94.72
3236.00,94.71
3235.00,94.69
3234.00,94.68
3233.00,94.68
3232.00,94.69
3231.00,94.70
3230.00,94.70
3229.00,94.71
3228.00,94.71
3227.00,94.71
3226.00,94.71
3225.00,94.71
3224.00,94.71
3223.00,94.71
3222.00,94.71
3221.00,94.72
3220.00,94.74
3219.00,94.75
3218.00,94.75
3217.00,94.74
3216.00,94.73
3215.00,94.73
3214.00,94.73
3213.00,94.73
3212.00,94.72
3211.00,94.72
3210.00,94.73
3209.00,94.74
3208.00,94.74
3207.00,94.75
3206.00,94.75
3205.00,94.75
3204.00,94.75
3203.00,94.75
3202.00,94.74
3201.00,94.73
3200.00,94.73
3199.00,94.74
3198.00,94.77
3197.00,94.79
3196.00,94.81
3195.00,94.81
3194.00,94.80
3193.00,94.78
3192.00,94.77
3191.00,94.77
3190.00,94.78
3189.00,94.79
3188.00,94.80
3187.00,94.81
3186.00,94.81
3185.00,94.81
3184.00,94.80
3183.00,94.80
3182.00,94.81
3181.00,94.82
3180.00,94.82
3179.00,94.83
3178.00,94.84
3177.00,94.85
3176.00,94.87
3175.00,94.89
3174.00,94.91
3173.00,94.92
3172.00,94.91
3171.00,94.90
3170.00,94.90
3169.00,94.91
3168.00,94.94
3167.00,94.96
3166.00,94.98
3165.00,95.00
3164.00,95.01
3163.00,95.03
3162.00,95.05
3161.00,95.07
3160.00,95.08
3159.00,95.09
3158.00,95.10
3157.00,95.10
3156.00,95.11
3155.00,95.13
3154.00,95.14
3153.00,95.15
3152.00,95.16
3151.00,95.18
3150.00,95.20
3149.00,95.21
3148.00,95.22
3147.00,95.24
3146.00,95.25
3145.00,95.26
3144.00,95.27
3143.00,95.27
3142.00,95.28
3141.00,95.28
3140.00,95.29
3139.00,95.29
3138.00,95.30
3137.00,95.31
3136.00,95.33
3135.00,95.34
3134.00,95.35
3133.00,95.37
3132.00,95.38
3131.00,95.40
3130.00,95.42
3129.00,95.43
3128.00,95.43
3127.00,95.44
3126.00,95.44
3125.00,95.43
3124.00,95.42
3123.00,95.40
3122.00,95.40
3121.00,95.39
3120.00,95.40
3119.00,95.40
3118.00,95.41
3117.00,95.40
3116.00,95.39
3115.00,95.38
3114.00,95.38
3113.00,95.39
3112.00,95.39
3111.00,95.39
3110.00,95.38
3109.00,95.38
3108.00,95.37
3107.00,95.37
3106.00,95.37
3105.00,95.36
3104.00,95.34
3103.00,95.32
3102.00,95.30
3101.00,95.28
3100.00,95.27
3099.00,95.26
3098.00,95.25
3097.00,95.23
3096.00,95.22
3095.00,95.21
3094.00,95.19
3093.00,95.16
3092.00,95.13
3091.00,95.11
3090.00,95.09
3089.00,95.07
3088.00,95.05
3087.00,95.04
3086.00,95.03
3085.00,95.01
3084.00,94.99
3083.00,94.96
3082.00,94.92
3081.00,94.88
3080.00,94.85
3079.00,94.84
3078.00,94.85
3077.00,94.86
3076.00,94.88
3075.00,94.89
3074.00,94.90
3073.00,94.88
3072.00,94.86
3071.00,94.84
3070.00,94.82
3069.00,94.81
3068.00,94.81
3067.00,94.81
3066.00,94.80
3065.00,94.80
3064.00,94.78
3063.00,94.77
3062.00,94.76
3061.00,94.75
3060.00,94.74
3059.00,94.73
3058.00,94.71
3057.00,94.69
3056.00,94.69
3055.00,94.69
3054.00,94.69
3053.00,94.69
3052.00,94.67
3051.00,94.66
3050.00,94.64
3049.00,94.63
3048.00,94.62
3047.00,94.61
3046.00,94.61
3045.00,94.60
3044.00,94.58
3043.00,94.55
3042.00,94.53
3041.00,94.51
3040.00,94.51
3039.00,94.51
3038.00,94.52
3037.00,94.51
3036.00,94.48
3035.00,94.45
3034.00,94.41
3033.00,94.37
3032.00,94.34
3031.00,94.33
3030.00,94.32
3029.00,94.30
3028.00,94.28
3027.00,94.25
3026.00,94.24
3025.00,94.23
3024.00,94.24
3023.00,94.25
3022.00,94.27
3021.00,94.26
3020.00,94.25
3019.00,94.23
3018.00,94.20
3017.00,94.18
3016.00,94.16
3015.00,94.13
3014.00,94.11
3013.00,94.09
3012.00,94.07
3011.00,94.06
3010.00,94.04
3009.00,94.02
3008.00,94.00
3007.00,93.96
3006.00,93.92
3005.00,93.87
3004.00,93.83
3003.00,93.79
3002.00,93.76
3001.00,93.72
3000.00,93.67
2999.00,93.61
2998.00,93.54
2997.00,93.46
2996.00,93.37
2995.00,93.29
2994.00,93.20
2993.00,93.10
2992.00,93.00
2991.00,92.90
2990.00,92.79
2989.00,92.67
2988.00,92.55
2987.00,92.43
2986.00,92.30
2985.00,92.16
2984.00,92.00
2983.00,91.84
2982.00,91.69
2981.00,91.55
2980.00,91.42
2979.00,91.31
2978.00,91.19
2977.00,91.07
2976.00,90.93
2975.00,90.80
2974.00,90.69
2973.00,90.59
2972.00,90.50
2971.00,90.43
2970.00,90.39
2969.00,90.36
2968.00,90.34
2967.00,90.32
2966.00,90.30
2965.00,90.29
2964.00,90.28
2963.00,90.30
2962.00,90.32
2961.00,90.35
2960.00,90.39
2959.00,90.43
2958.00,90.46
2957.00,90.48
2956.00,90.50
2955.00,90.50
2954.00,90.50
2953.00,90.49
2952.00,90.48
2951.00,90.46
2950.00,90.44
2949.00,90.42
2948.00,90.40
2947.00,90.38
2946.00,90.35
2945.00,90.31
2944.00,90.25
2943.00,90.18
2942.00,90.09
2941.00,89.98
2940.00,89.87
2939.00,89.76
2938.00,89.65
2937.00,89.55
2936.00,89.44
2935.00,89.34
2934.00,89.24
2933.00,89.14
2932.00,89.05
2931.00,88.95
2930.00,88.86
2929.00,88.78
2928.00,88.69
2927.00,88.61
2926.00,88.53
2925.00,88.48
2924.00,88.44
2923.00,88.44
2922.00,88.46
2921.00,88.50
2920.00,88.56
2919.00,88.66
2918.00,88.77
2917.00,88.88
2916.00,89.00
2915.00,89.14
2914.00,89.30
2913.00,89.48
2912.00,89.67
2911.00,89.86
2910.00,90.05
2909.00,90.22
2908.00,90.38
2907.00,90.52
2906.00,90.66
2905.00,90.80
2904.00,90.94
2903.00,91.08
2902.00,91.22
2901.00,91.35
2900.00,91.47
2899.00,91.59
2898.00,91.70
2897.00,91.80
2896.00,91.90
2895.00,91.99
2894.00,92.06
2893.00,92.13
2892.00,92.20
2891.00,92.25
2890.00,92.29
2889.00,92.32
2888.00,92.32
2887.00,92.32
2886.00,92.33
2885.00,92.33
2884.00,92.33
2883.00,92.32
2882.00,92.30
2881.00,92.27
2880.00,92.24
2879.00,92.20
2878.00,92.16
2877.00,92.14
2876.00,92.12
2875.00,92.13
2874.00,92.14
2873.00,92.17
2872.00,92.20
2871.00,92.24
2870.00,92.29
2869.00,92.31
2868.00,92.33
2867.00,92.33
2866.00,92.32
2865.00,92.32
2864.00,92.33
2863.00,92.36
2862.00,92.39
2861.00,92.42
2860.00,92.47
2859.00,92.51
2858.00,92.57
2857.00,92.63
2856.00,92.69
2855.00,92.75
2854.00,92.82
2853.00,92.90
2852.00,92.99
2851.00,93.08
2850.00,93.17
2849.00,93.25
2848.00,93.33
2847.00,93.42
2846.00,93.51
2845.00,93.60
2844.00,93.69
2843.00,93.77
2842.00,93.86
2841.00,93.95
2840.00,94.04
2839.00,94.14
2838.00,94.25
2837.00,94.37
2836.00,94.48
2835.00,94.59
2834.00,94.67
2833.00,94.75
2832.00,94.82
2831.00,94.88
2830.00,94.95
2829.00,95.02
2828.00,95.08
2827.00,95.15
2826.00,95.20
2825.00,95.25
2824.00,95.29
2823.00,95.33
2822.00,95.37
2821.00,95.41
2820.00,95.45
2819.00,95.48
2818.00,95.51
2817.00,95.54
2816.00,95.57
2815.00,95.60
2814.00,95.62
2813.00,95.63
2812.00,95.65
2811.00,95.67
2810.00,95.69
2809.00,95.71
2808.00,95.74
2807.00,95.76
2806.00,95.77
2805.00,95.78
2804.00,95.78
2803.00,95.79
2802.00,95.81
2801.00,95.83
2800.00,95.84
2799.00,95.84
2798.00,95.85
2797.00,95.86
2796.00,95.87
2795.00,95.90
2794.00,95.93
2793.00,95.95
2792.00,95.96
2791.00,95.97
2790.00,95.98
2789.00,95.99
2788.00,96.01
2787.00,96.03
2786.00,96.04
2785.00,96.05
2784.00,96.05
2783.00,96.05
2782.00,96.06
2781.00,96.07
2780.00,96.07
2779.00,96.09
2778.00,96.09
2777.00,96.10
2776.00,96.10
2775.00,96.11
2774.00,96.12
2773.00,96.12
2772.00,96.12
2771.00,96.12
2770.00,96.11
2769.00,96.11
2768.00,96.11
2767.00,96.12
2766.00,96.12
2765.00,96.12
2764.00,96.12
2763.00,96.12
2762.00,96.13
2761.00,96.14
2760.00,96.15
2759.00,96.16
2758.00,96.16
2757.00,96.16
2756.00,96.15
2755.00,96.15
2754.00,96.15
2753.00,96.14
2752.00,96.12
2751.00,96.11
2750.00,96.11
2749.00,96.10
2748.00,96.09
2747.00,96.08
2746.00,96.06
2745.00,96.05
2744.00,96.04
2743.00,96.02
2742.00,96.00
2741.00,95.98
2740.00,95.96
2739.00,95.95
2738.00,95.95
2737.00,95.95
2736.00,95.95
2735.00,95.95
2734.00,95.96
2733.00,95.97
2732.00,95.99
2731.00,96.02
2730.00,96.04
2729.00,96.06
2728.00,96.08
2727.00,96.10
2726.00,96.12
2725.00,96.13
2724.00,96.14
2723.00,96.15
2722.00,96.17
2721.00,96.18
2720.00,96.19
2719.00,96.21
2718.00,96.22
2717.00,96.24
2716.00,96.25
2715.00,96.26
2714.00,96.26
2713.00,96.26
2712.00,96.26
2711.00,96.25
2710.00,96.25
2709.00,96.24
2708.00,96.24
2707.00,96.25
2706.00,96.25
2705.00,96.26
2704.00,96.26
2703.00,96.27
2702.00,96.28
2701.00,96.28
2700.00,96.29
2699.00,96.30
2698.00,96.31
2697.00,96.32
2696.00,96.33
2695.00,96.33
2694.00,96.34
2693.00,96.34
2692.00,96.35
2691.00,96.36
2690.00,96.37
2689.00,96.37
2688.00,96.36
2687.00,96.35
2686.00,96.34
2685.00,96.34
2684.00,96.34
2683.00,96.34
2682.00,96.35
2681.00,96.35
2680.00,96.35
2679.00,96.35
2678.00,96.36
2677.00,96.37
2676.00,96.38
2675.00,96.39
2674.00,96.39
2673.00,96.39
2672.00,96.38
2671.00,96.38
2670.00,96.37
2669.00,96.37
2668.00,96.38
2667.00,96.38
2666.00,96.38
2665.00,96.38
2664.00,96.37
2663.00,96.37
2662.00,96.37
2661.00,96.37
2660.00,96.37
2659.00,96.37
2658.00,96.37
2657.00,96.38
2656.00,96.38
2655.00,96.39
2654.00,96.39
2653.00,96.40
2652.00,96.39
2651.00,96.38
2650.00,96.37
2649.00,96.35
2648.00,96.35
2647.00,96.37
2646.00,96.39
2645.00,96.40
2644.00,96.40
2643.00,96.40
2642.00,96.40
2641.00,96.40
2640.00,96.41
2639.00,96.41
2638.00,96.41
2637.00,96.40
2636.00,96.39
2635.00,96.39
2634.00,96.39
2633.00,96.40
2632.00,96.41
2631.00,96.41
2630.00,96.40
2629.00,96.39
2628.00,96.39
2627.00,96.39
2626.00,96.40
2625.00,96.41
2624.00,96.43
2623.00,96.43
2622.00,96.43
2621.00,96.43
2620.00,96.42
2619.00,96.42
2618.00,96.42
2617.00,96.42
2616.00,96.41
2615.00,96.40
2614.00,96.40
2613.00,96.39
2612.00,96.39
2611.00,96.40
2610.00,96.41
2609.00,96.42
2608.00,96.43
2607.00,96.44
2606.00,96.45
2605.00,96.45
2604.00,96.45
2603.00,96.45
2602.00,96.45
2601.00,96.46
2600.00,96.46
2599.00,96.47
2598.00,96.47
2597.00,96.48
2596.00,96.49
2595.00,96.49
2594.00,96.49
2593.00,96.48
2592.00,96.47
2591.00,96.47
2590.00,96.47
2589.00,96.48
2588.00,96.49
2587.00,96.50
2586.00,96.50
2585.00,96.50
2584.00,96.50
2583.00,96.51
2582.00,96.51
2581.00,96.51
2580.00,96.51
2579.00,96.51
2578.00,96.52
2577.00,96.51
2576.00,96.50
2575.00,96.49
2574.00,96.49
2573.00,96.50
2572.00,96.51
2571.00,96.53
2570.00,96.53
2569.00,96.53
2568.00,96.53
2567.00,96.51
2566.00,96.50
2565.00,96.48
2564.00,96.47
2563.00,96.48
2562.00,96.50
2561.00,96.52
2560.00,96.53
2559.00,96.54
2558.00,96.55
2557.00,96.55
2556.00,96.55
2555.00,96.56
2554.00,96.56
2553.00,96.56
2552.00,96.56
2551.00,96.56
2550.00,96.57
2549.00,96.58
2548.00,96.58
2547.00,96.59
2546.00,96.59
2545.00,96.58
2544.00,96.58
2543.00,96.57
2542.00,96.56
2541.00,96.56
2540.00,96.56
2539.00,96.57
2538.00,96.57
2537.00,96.57
2536.00,96.57
2535.00,96.57
2534.00,96.56
2533.00,96.56
2532.00,96.56
2531.00,96.58
2530.00,96.60
2529.00,96.61
2528.00,96.61
2527.00,96.61
2526.00,96.60
2525.00,96.60
2524.00,96.60
2523.00,96.61
2522.00,96.61
2521.00,96.62
2520.00,96.62
2519.00,96.62
2518.00,96.62
2517.00,96.62
2516.00,96.61
2515.00,96.62
2514.00,96.63
2513.00,96.63
2512.00,96.63
2511.00,96.63
2510.00,96.61
2509.00,96.60
2508.00,96.60
2507.00,96.60
2506.00,96.61
2505.00,96.61
2504.00,96.61
2503.00,96.61
2502.00,96.63
2501.00,96.65
2500.00,96.66
2499.00,96.67
2498.00,96.67
2497.00,96.66
2496.00,96.65
2495.00,96.65
2494.00,96.65
2493.00,96.66
2492.00,96.66
2491.00,96.66
2490.00,96.65
2489.00,96.64
2488.00,96.64
2487.00,96.65
2486.00,96.66
2485.00,96.65
2484.00,96.64
2483.00,96.63
2482.00,96.63
2481.00,96.63
2480.00,96.64
2479.00,96.64
2478.00,96.64
2477.00,96.63
2476.00,96.62
2475.00,96.62
2474.00,96.62
2473.00,96.63
2472.00,96.64
2471.00,96.65
2470.00,96.65
2469.00,96.64
2468.00,96.63
2467.00,96.62
2466.00,96.61
2465.00,96.60
2464.00,96.60
2463.00,96.59
2462.00,96.60
2461.00,96.60
2460.00,96.61
2459.00,96.62
2458.00,96.62
2457.00,96.61
2456.00,96.61
2455.00,96.62
2454.00,96.62
2453.00,96.63
2452.00,96.63
2451.00,96.62
2450.00,96.61
2449.00,96.60
2448.00,96.60
2447.00,96.60
2446.00,96.60
2445.00,96.60
2444.00,96.60
2443.00,96.61
2442.00,96.62
2441.00,96.63
2440.00,96.64
2439.00,96.65
2438.00,96.66
2437.00,96.66
2436.00,96.64
2435.00,96.63
2434.00,96.62
2433.00,96.61
2432.00,96.60
2431.00,96.61
2430.00,96.63
2429.00,96.65
2428.00,96.67
2427.00,96.67
2426.00,96.67
2425.00,96.65
2424.00,96.64
2423.00,96.64
2422.00,96.64
2421.00,96.65
2420.00,96.65
2419.00,96.66
2418.00,96.65
2417.00,96.64
2416.00,96.62
2415.00,96.62
2414.00,96.61
2413.00,96.61
2412.00,96.61
2411.00,96.62
2410.00,96.63
2409.00,96.63
2408.00,96.64
2407.00,96.64
2406.00,96.63
2405.00,96.63
2404.00,96.62
2403.00,96.63
2402.00,96.64
2401.00,96.65
2400.00,96.66
2399.00,96.67
2398.00,96.67
2397.00,96.67
2396.00,96.66
2395.00,96.66
2394.00,96.67
2393.00,96.67
2392.00,96.67
2391.00,96.68
2390.00,96.70
2389.00,96.71
2388.00,96.73
2387.00,96.74
2386.00,96.76
2385.00,96.78
2384.00,96.79
2383.00,96.80
2382.00,96.79
2381.00,96.75
2380.00,96.71
2379.00,96.66
2378.00,96.61
2377.00,96.55
2376.00,96.50
2375.00,96.49
2374.00,96.54
2373.00,96.60
2372.00,96.66
2371.00,96.69
2370.00,96.69
2369.00,96.66
2368.00,96.64
2367.00,96.63
2366.00,96.64
2365.00,96.62
2364.00,96.59
2363.00,96.57
2362.00,96.59
2361.00,96.62
2360.00,96.67
2359.00,96.76
2358.00,96.81
2357.00,96.77
2356.00,96.67
2355.00,96.57
2354.00,96.50
2353.00,96.47
2352.00,96.48
2351.00,96.52
2350.00,96.57
2349.00,96.59
2348.00,96.56
2347.00,96.53
2346.00,96.53
2345.00,96.57
2344.00,96.63
2343.00,96.65
2342.00,96.61
2341.00,96.54
2340.00,96.48
2339.00,96.46
2338.00,96.46
2337.00,96.45
2336.00,96.43
2335.00,96.43
2334.00,96.43
2333.00,96.41
2332.00,96.39
2331.00,96.42
2330.00,96.50
2329.00,96.59
2328.00,96.65
2327.00,96.67
2326.00,96.68
2325.00,96.67
2324.00,96.65
2323.00,96.62
2322.00,96.60
2321.00,96.59
2320.00,96.60
2319.00,96.63
2318.00,96.66
2317.00,96.67
2316.00,96.66
2315.00,96.63
2314.00,96.61
2313.00,96.59
2312.00,96.61
2311.00,96.64
2310.00,96.68
2309.00,96.70
2308.00,96.71
2307.00,96.71
2306.00,96.71
2305.00,96.72
2304.00,96.73
2303.00,96.75
2302.00,96.76
2301.00,96.76
2300.00,96.76
2299.00,96.76
2298.00,96.75
2297.00,96.74
2296.00,96.73
2295.00,96.73
2294.00,96.73
2293.00,96.73
2292.00,96.72
2291.00,96.71
2290.00,96.70
2289.00,96.68
2288.00,96.67
2287.00,96.67
2286.00,96.66
2285.00,96.65
2284.00,96.64
2283.00,96.64
2282.00,96.65
2281.00,96.65
2280.00,96.65
2279.00,96.65
2278.00,96.65
2277.00,96.64
2276.00,96.63
2275.00,96.62
2274.00,96.62
2273.00,96.63
2272.00,96.64
2271.00,96.65
2270.00,96.66
2269.00,96.65
2268.00,96.65
2267.00,96.65
2266.00,96.65
2265.00,96.65
2264.00,96.64
2263.00,96.65
2262.00,96.66
2261.00,96.66
2260.00,96.66
2259.00,96.65
2258.00,96.64
2257.00,96.64
2256.00,96.64
2255.00,96.64
2254.00,96.65
2253.00,96.64
2252.00,96.64
2251.00,96.64
2250.00,96.65
2249.00,96.65
2248.00,96.65
2247.00,96.65
2246.00,96.66
2245.00,96.66
2244.00,96.65
2243.00,96.65
2242.00,96.65
2241.00,96.65
2240.00,96.65
2239.00,96.65
2238.00,96.66
2237.00,96.66
2236.00,96.66
2235.00,96.66
2234.00,96.67
2233.00,96.67
2232.00,96.67
2231.00,96.67
2230.00,96.66
2229.00,96.66
2228.00,96.65
2227.00,96.65
2226.00,96.65
2225.00,96.65
2224.00,96.66
2223.00,96.66
2222.00,96.67
2221.00,96.67
2220.00,96.66
2219.00,96.66
2218.00,96.67
2217.00,96.67
2216.00,96.68
2215.00,96.68
2214.00,96.69
2213.00,96.69
2212.00,96.69
2211.00,96.68
2210.00,96.68
2209.00,96.68
2208.00,96.69
2207.00,96.69
2206.00,96.69
2205.00,96.69
2204.00,96.69
2203.00,96.70
2202.00,96.71
2201.00,96.72
2200.00,96.72
2199.00,96.71
2198.00,96.71
2197.00,96.70
2196.00,96.69
2195.00,96.69
2194.00,96.68
2193.00,96.68
2192.00,96.68
2191.00,96.68
2190.00,96.68
2189.00,96.68
2188.00,96.67
2187.00,96.67
2186.00,96.66
2185.00,96.65
2184.00,96.64
2183.00,96.63
2182.00,96.62
2181.00,96.61
2180.00,96.61
2179.00,96.61
2178.00,96.61
2177.00,96.61
2176.00,96.61
2175.00,96.61
2174.00,96.61
2173.00,96.60
2172.00,96.60
2171.00,96.59
2170.00,96.59
2169.00,96.57
2168.00,96.55
2167.00,96.53
2166.00,96.53
2165.00,96.52
2164.00,96.53
2163.00,96.53
2162.00,96.54
2161.00,96.54
2160.00,96.54
2159.00,96.54
2158.00,96.54
2157.00,96.53
2156.00,96.53
2155.00,96.53
2154.00,96.54
2153.00,96.54
2152.00,96.53
2151.00,96.53
2150.00,96.52
2149.00,96.52
2148.00,96.51
2147.00,96.51
2146.00,96.51
2145.00,96.51
2144.00,96.51
2143.00,96.51
2142.00,96.51
2141.00,96.50
2140.00,96.49
2139.00,96.49
2138.00,96.49
2137.00,96.50
2136.00,96.51
2135.00,96.52
2134.00,96.53
2133.00,96.53
2132.00,96.52
2131.00,96.52
2130.00,96.52
2129.00,96.52
2128.00,96.52
2127.00,96.52
2126.00,96.53
2125.00,96.53
2124.00,96.53
2123.00,96.53
2122.00,96.53
2121.00,96.53
2120.00,96.53
2119.00,96.54
2118.00,96.54
2117.00,96.53
2116.00,96.51
2115.00,96.50
2114.00,96.49
2113.00,96.49
2112.00,96.49
2111.00,96.49
2110.00,96.48
2109.00,96.48
2108.00,96.47
2107.00,96.46
2106.00,96.45
2105.00,96.44
2104.00,96.43
2103.00,96.43
2102.00,96.44
2101.00,96.45
2100.00,96.46
2099.00,96.46
2098.00,96.47
2097.00,96.49
2096.00,96.50
2095.00,96.52
2094.00,96.52
2093.00,96.51
2092.00,96.50
2091.00,96.50
2090.00,96.50
2089.00,96.50
2088.00,96.50
2087.00,96.50
2086.00,96.50
2085.00,96.50
2084.00,96.50
2083.00,96.51
2082.00,96.51
2081.00,96.51
2080.00,96.50
2079.00,96.49
2078.00,96.49
2077.00,96.50
2076.00,96.51
2075.00,96.51
2074.00,96.51
2073.00,96.50
2072.00,96.50
2071.00,96.50
2070.00,96.49
2069.00,96.48
2068.00,96.47
2067.00,96.46
2066.00,96.46
2065.00,96.46
2064.00,96.46
2063.00,96.46
2062.00,96.46
2061.00,96.46
2060.00,96.46
2059.00,96.46
2058.00,96.47
2057.00,96.47
2056.00,96.47
2055.00,96.47
2054.00,96.47
2053.00,96.47
2052.00,96.47
2051.00,96.47
2050.00,96.47
2049.00,96.47
2048.00,96.47
2047.00,96.47
2046.00,96.48
2045.00,96.48
2044.00,96.47
2043.00,96.46
2042.00,96.45
2041.00,96.43
2040.00,96.43
2039.00,96.44
2038.00,96.45
2037.00,96.45
2036.00,96.44
2035.00,96.43
2034.00,96.42
2033.00,96.42
2032.00,96.42
2031.00,96.43
2030.00,96.45
2029.00,96.45
2028.00,96.46
2027.00,96.47
2026.00,96.47
2025.00,96.46
2024.00,96.44
2023.00,96.42
2022.00,96.41
2021.00,96.40
2020.00,96.39
2019.00,96.38
2018.00,96.38
2017.00,96.39
2016.00,96.39
2015.00,96.39
2014.00,96.39
2013.00,96.39
2012.00,96.39
2011.00,96.38
2010.00,96.37
2009.00,96.37
2008.00,96.36
2007.00,96.36
2006.00,96.37
2005.00,96.36
2004.00,96.36
2003.00,96.36
2002.00,96.36
2001.00,96.34
2000.00,96.33
1999.00,96.32
1998.00,96.32
1997.00,96.32
1996.00,96.32
1995.00,96.31
1994.00,96.30
1993.00,96.28
1992.00,96.27
1991.00,96.27
1990.00,96.28
1989.00,96.28
1988.00,96.29
1987.00,96.29
1986.00,96.30
1985.00,96.30
1984.00,96.30
1983.00,96.30
1982.00,96.31
1981.00,96.31
1980.00,96.31
1979.00,96.30
1978.00,96.30
1977.00,96.30
1976.00,96.30
1975.00,96.31
1974.00,96.31
1973.00,96.30
1972.00,96.30
1971.00,96.30
1970.00,96.29
1969.00,96.29
1968.00,96.28
1967.00,96.28
1966.00,96.28
1965.00,96.28
1964.00,96.28
1963.00,96.27
1962.00,96.27
1961.00,96.27
1960.00,96.28
1959.00,96.29
1958.00,96.30
1957.00,96.30
1956.00,96.30
1955.00,96.30
1954.00,96.30
1953.00,96.29
1952.00,96.29
1951.00,96.28
1950.00,96.28
1949.00,96.27
1948.00,96.26
1947.00,96.26
1946.00,96.26
1945.00,96.26
1944.00,96.26
1943.00,96.26
1942.00,96.27
1941.00,96.27
1940.00,96.26
1939.00,96.27
1938.00,96.27
1937.00,96.28
1936.00,96.27
1935.00,96.26
1934.00,96.25
1933.00,96.24
1932.00,96.24
1931.00,96.24
1930.00,96.25
1929.00,96.24
1928.00,96.23
1927.00,96.22
1926.00,96.21
1925.00,96.19
1924.00,96.17
1923.00,96.15
1922.00,96.15
1921.00,96.15
1920.00,96.14
1919.00,96.13
1918.00,96.13
1917.00,96.12
1916.00,96.13
1915.00,96.13
1914.00,96.14
1913.00,96.13
1912.00,96.12
1911.00,96.11
1910.00,96.10
1909.00,96.10
1908.00,96.11
1907.00,96.12
1906.00,96.13
1905.00,96.12
1904.00,96.11
1903.00,96.10
1902.00,96.10
1901.00,96.10
1900.00,96.09
1899.00,96.07
1898.00,96.06
1897.00,96.05
1896.00,96.04
1895.00,96.05
1894.00,96.06
1893.00,96.06
1892.00,96.05
1891.00,96.04
1890.00,96.03
1889.00,96.03
1888.00,96.02
1887.00,96.03
1886.00,96.04
1885.00,96.05
1884.00,96.06
1883.00,96.06
1882.00,96.05
1881.00,96.04
1880.00,96.03
1879.00,96.03
1878.00,96.03
1877.00,96.03
1876.00,96.04
1875.00,96.04
1874.00,96.04
1873.00,96.03
1872.00,96.02
1871.00,96.02
1870.00,96.02
1869.00,96.02
1868.00,96.02
1867.00,96.03
1866.00,96.04
1865.00,96.04
1864.00,96.03
1863.00,96.03
1862.00,96.02
1861.00,96.02
1860.00,96.01
1859.00,96.01
1858.00,96.00
1857.00,96.00
1856.00,95.99
1855.00,95.99
1854.00,95.99
1853.00,95.99
1852.00,95.98
1851.00,95.98
1850.00,95.98
1849.00,95.96
1848.00,95.94
1847.00,95.93
1846.00,95.93
1845.00,95.93
1844.00,95.93
1843.00,95.95
1842.00,95.96
1841.00,95.97
1840.00,95.95
1839.00,95.94
1838.00,95.94
1837.00,95.93
1836.00,95.92
1835.00,95.90
1834.00,95.89
1833.00,95.88
1832.00,95.86
1831.00,95.86
1830.00,95.87
1829.00,95.87
1828.00,95.86
1827.00,95.85
1826.00,95.84
1825.00,95.83
1824.00,95.83
1823.00,95.84
1822.00,95.85
1821.00,95.85
1820.00,95.84
1819.00,95.83
1818.00,95.82
1817.00,95.80
1816.00,95.79
1815.00,95.78
1814.00,95.78
1813.00,95.77
1812.00,95.75
1811.00,95.75
1810.00,95.74
1809.00,95.73
1808.00,95.70
1807.00,95.68
1806.00,95.65
1805.00,95.62
1804.00,95.57
1803.00,95.52
1802.00,95.48
1801.00,95.46
1800.00,95.45
1799.00,95.43
1798.00,95.39
1797.00,95.33
1796.00,95.25
1795.00,95.19
1794.00,95.13
1793.00,95.05
1792.00,94.95
1791.00,94.84
1790.00,94.75
1789.00,94.65
1788.00,94.54
1787.00,94.43
1786.00,94.31
1785.00,94.19
1784.00,94.09
1783.00,94.01
1782.00,93.94
1781.00,93.86
1780.00,93.81
1779.00,93.78
1778.00,93.77
1777.00,93.77
1776.00,93.77
1775.00,93.80
1774.00,93.85
1773.00,93.91
1772.00,93.94
1771.00,93.95
1770.00,93.93
1769.00,93.89
1768.00,93.82
1767.00,93.76
1766.00,93.71
1765.00,93.64
1764.00,93.54
1763.00,93.42
1762.00,93.29
1761.00,93.17
1760.00,93.06
1759.00,92.95
1758.00,92.83
1757.00,92.67
1756.00,92.50
1755.00,92.34
1754.00,92.20
1753.00,92.02
1752.00,91.81
1751.00,91.59
1750.00,91.41
1749.00,91.26
1748.00,91.12
1747.00,90.98
1746.00,90.83
1745.00,90.68
1744.00,90.51
1743.00,90.37
1742.00,90.24
1741.00,90.10
1740.00,89.92
1739.00,89.72
1738.00,89.54
1737.00,89.37
1736.00,89.16
1735.00,88.81
1734.00,88.29
1733.00,87.72
1732.00,87.15
1731.00,86.46
1730.00,85.52
1729.00,84.26
1728.00,82.71
1727.00,80.83
1726.00,78.60
1725.00,75.98
1724.00,73.06
1723.00,70.08
1722.00,67.36
1721.00,65.05
1720.00,63.01
1719.00,60.98
1718.00,58.95
1717.00,57.33
1716.00,56.40
1715.00,56.01
1714.00,55.95
1713.00,56.17
1712.00,56.64
1711.00,57.31
1710.00,58.11
1709.00,59.01
1708.00,60.00
1707.00,61.02
1706.00,62.00
1705.00,62.92
1704.00,63.77
1703.00,64.55
1702.00,65.26
1701.00,65.86
1700.00,66.37
1699.00,66.89
1698.00,67.46
1697.00,68.05
1696.00,68.64
1695.00,69.25
1694.00,69.90
1693.00,70.59
1692.00,71.33
1691.00,72.11
1690.00,72.91
1689.00,73.73
1688.00,74.56
1687.00,75.40
1686.00,76.31
1685.00,77.38
1684.00,78.57
1683.00,79.66
1682.00,80.62
1681.00,81.54
1680.00,82.46
1679.00,83.32
1678.00,84.11
1677.00,84.86
1676.00,85.60
1675.00,86.30
1674.00,86.87
1673.00,87.34
1672.00,87.76
1671.00,88.14
1670.00,88.49
1669.00,88.80
1668.00,89.07
1667.00,89.29
1666.00,89.46
1665.00,89.63
1664.00,89.79
1663.00,89.95
1662.00,90.07
1661.00,90.17
1660.00,90.26
1659.00,90.33
1658.00,90.38
1657.00,90.41
1656.00,90.43
1655.00,90.46
1654.00,90.49
1653.00,90.48
1652.00,90.46
1651.00,90.47
1650.00,90.48
1649.00,90.46
1648.00,90.41
1647.00,90.31
1646.00,90.19
1645.00,90.09
1644.00,90.04
1643.00,90.01
1642.00,89.99
1641.00,89.99
1640.00,90.00
1639.00,90.04
1638.00,90.10
1637.00,90.16
1636.00,90.23
1635.00,90.27
1634.00,90.31
1633.00,90.33
1632.00,90.35
1631.00,90.36
1630.00,90.34
1629.00,90.29
1628.00,90.21
1627.00,90.10
1626.00,89.97
1625.00,89.80
1624.00,89.57
1623.00,89.29
1622.00,88.99
1621.00,88.71
1620.00,88.44
1619.00,88.14
1618.00,87.78
1617.00,87.32
1616.00,86.84
1615.00,86.44
1614.00,86.13
1613.00,85.84
1612.00,85.53
1611.00,85.21
1610.00,84.88
1609.00,84.55
1608.00,84.22
1607.00,83.92
1606.00,83.67
1605.00,83.46
1604.00,83.28
1603.00,83.17
1602.00,83.15
1601.00,83.20
1600.00,83.32
1599.00,83.49
1598.00,83.69
1597.00,83.93
1596.00,84.21
1595.00,84.54
1594.00,84.93
1593.00,85.36
1592.00,85.81
1591.00,86.27
1590.00,86.74
1589.00,87.20
1588.00,87.64
1587.00,88.07
1586.00,88.49
1585.00,88.88
1584.00,89.25
1583.00,89.61
1582.00,89.96
1581.00,90.29
1580.00,90.59
1579.00,90.86
1578.00,91.12
1577.00,91.39
1576.00,91.66
1575.00,91.87
1574.00,92.01
1573.00,92.11
1572.00,92.21
1571.00,92.33
1570.00,92.45
1569.00,92.53
1568.00,92.58
1567.00,92.63
1566.00,92.68
1565.00,92.72
1564.00,92.75
1563.00,92.76
1562.00,92.74
1561.00,92.73
1560.00,92.78
1559.00,92.89
1558.00,92.96
1557.00,92.97
1556.00,92.97
1555.00,92.97
1554.00,92.98
1553.00,92.99
1552.00,93.00
1551.00,93.01
1550.00,93.02
1549.00,93.03
1548.00,93.05
1547.00,93.06
1546.00,93.04
1545.00,93.00
1544.00,92.98
1543.00,93.01
1542.00,93.05
1541.00,93.09
1540.00,93.10
1539.00,93.10
1538.00,93.11
1537.00,93.10
1536.00,93.09
1535.00,93.08
1534.00,93.06
1533.00,93.03
1532.00,93.00
1531.00,93.00
1530.00,93.00
1529.00,92.98
1528.00,92.95
1527.00,92.93
1526.00,92.90
1525.00,92.85
1524.00,92.79
1523.00,92.73
1522.00,92.66
1521.00,92.55
1520.00,92.46
1519.00,92.38
1518.00,92.27
1517.00,92.09
1516.00,91.90
1515.00,91.76
1514.00,91.66
1513.00,91.57
1512.00,91.49
1511.00,91.45
1510.00,91.41
1509.00,91.35
1508.00,91.27
1507.00,91.23
1506.00,91.19
1505.00,91.13
1504.00,91.05
1503.00,90.97
1502.00,90.84
1501.00,90.61
1500.00,90.32
1499.00,89.98
1498.00,89.57
1497.00,89.02
1496.00,88.37
1495.00,87.74
1494.00,87.13
1493.00,86.46
1492.00,85.66
1491.00,84.69
1490.00,83.54
1489.00,82.29
1488.00,81.04
1487.00,79.82
1486.00,78.59
1485.00,77.36
1484.00,76.16
1483.00,74.95
1482.00,73.68
1481.00,72.41
1480.00,71.25
1479.00,70.21
1478.00,69.19
1477.00,68.16
1476.00,67.19
1475.00,66.33
1474.00,65.50
1473.00,64.66
1472.00,63.96
1471.00,63.59
1470.00,63.52
1469.00,63.65
1468.00,63.92
1467.00,64.28
1466.00,64.69
1465.00,65.15
1464.00,65.63
1463.00,66.10
1462.00,66.55
1461.00,66.96
1460.00,67.33
1459.00,67.62
1458.00,67.80
1457.00,67.91
1456.00,68.09
1455.00,68.40
1454.00,68.78
1453.00,69.21
1452.00,69.67
1451.00,70.14
1450.00,70.62
1449.00,71.15
1448.00,71.72
1447.00,72.33
1446.00,72.93
1445.00,73.50
1444.00,74.04
1443.00,74.53
1442.00,74.99
1441.00,75.42
1440.00,75.84
1439.00,76.22
1438.00,76.56
1437.00,76.89
1436.00,77.22
1435.00,77.56
1434.00,77.88
1433.00,78.18
1432.00,78.44
1431.00,78.63
1430.00,78.79
1429.00,78.96
1428.00,79.15
1427.00,79.36
1426.00,79.58
1425.00,79.85
1424.00,80.19
1423.00,80.58
1422.00,81.01
1421.00,81.50
1420.00,82.07
1419.00,82.67
1418.00,83.27
1417.00,83.83
1416.00,84.35
1415.00,84.83
1414.00,85.27
1413.00,85.69
1412.00,86.10
1411.00,86.47
1410.00,86.83
1409.00,87.18
1408.00,87.50
1407.00,87.74
1406.00,87.92
1405.00,88.05
1404.00,88.14
1403.00,88.15
1402.00,88.08
1401.00,87.96
1400.00,87.74
1399.00,87.44
1398.00,87.09
1397.00,86.72
1396.00,86.28
1395.00,85.74
1394.00,85.16
1393.00,84.62
1392.00,84.11
1391.00,83.58
1390.00,83.00
1389.00,82.34
1388.00,81.59
1387.00,80.76
1386.00,79.92
1385.00,79.10
1384.00,78.28
1383.00,77.42
1382.00,76.57
1381.00,75.80
1380.00,75.12
1379.00,74.57
1378.00,74.17
1377.00,73.96
1376.00,73.95
1375.00,74.15
1374.00,74.59
1373.00,75.22
1372.00,75.98
1371.00,76.80
1370.00,77.64
1369.00,78.50
1368.00,79.33
1367.00,80.12
1366.00,80.84
1365.00,81.50
1364.00,82.12
1363.00,82.71
1362.00,83.30
1361.00,83.88
1360.00,84.45
1359.00,84.99
1358.00,85.49
1357.00,85.94
1356.00,86.35
1355.00,86.71
1354.00,87.04
1353.00,87.35
1352.00,87.63
1351.00,87.88
1350.00,88.09
1349.00,88.28
1348.00,88.47
1347.00,88.64
1346.00,88.78
1345.00,88.92
1344.00,89.04
1343.00,89.13
1342.00,89.18
1341.00,89.21
1340.00,89.21
1339.00,89.21
1338.00,89.21
1337.00,89.22
1336.00,89.22
1335.00,89.19
1334.00,89.12
1333.00,89.03
1332.00,88.90
1331.00,88.75
1330.00,88.57
1329.00,88.37
1328.00,88.16
1327.00,87.93
1326.00,87.68
1325.00,87.40
1324.00,87.11
1323.00,86.81
1322.00,86.49
1321.00,86.17
1320.00,85.84
1319.00,85.49
1318.00,85.12
1317.00,84.73
1316.00,84.33
1315.00,83.93
1314.00,83.51
1313.00,83.08
1312.00,82.63
1311.00,82.16
1310.00,81.68
1309.00,81.23
1308.00,80.87
1307.00,80.65
1306.00,80.61
1305.00,80.79
1304.00,81.17
1303.00,81.72
1302.00,82.39
1301.00,83.13
1300.00,83.87
1299.00,84.56
1298.00,85.17
1297.00,85.69
1296.00,86.14
1295.00,86.53
1294.00,86.87
1293.00,87.17
1292.00,87.44
1291.00,87.68
1290.00,87.87
1289.00,88.04
1288.00,88.21
1287.00,88.36
1286.00,88.49
1285.00,88.60
1284.00,88.67
1283.00,88.73
1282.00,88.76
1281.00,88.78
1280.00,88.77
1279.00,88.74
1278.00,88.68
1277.00,88.60
1276.00,88.49
1275.00,88.34
1274.00,88.17
1273.00,87.98
1272.00,87.77
1271.00,87.54
1270.00,87.31
1269.00,87.10
1268.00,86.91
1267.00,86.76
1266.00,86.64
1265.00,86.58
1264.00,86.55
1263.00,86.55
1262.00,86.55
1261.00,86.56
1260.00,86.56
1259.00,86.54
1258.00,86.52
1257.00,86.48
1256.00,86.43
1255.00,86.37
1254.00,86.31
1253.00,86.23
1252.00,86.14
1251.00,86.01
1250.00,85.87
1249.00,85.72
1248.00,85.55
1247.00,85.36
1246.00,85.15
1245.00,84.92
1244.00,84.67
1243.00,84.41
1242.00,84.15
1241.00,83.90
1240.00,83.66
1239.00,83.40
1238.00,83.12
1237.00,82.83
1236.00,82.51
1235.00,82.17
1234.00,81.80
1233.00,81.42
1232.00,81.04
1231.00,80.66
1230.00,80.29
1229.00,79.94
1228.00,79.62
1227.00,79.34
1226.00,79.08
1225.00,78.81
1224.00,78.52
1223.00,78.21
1222.00,77.88
1221.00,77.53
1220.00,77.12
1219.00,76.67
1218.00,76.17
1217.00,75.62
1216.00,75.05
1215.00,74.44
1214.00,73.78
1213.00,73.06
1212.00,72.25
1211.00,71.36
1210.00,70.39
1209.00,69.32
1208.00,68.19
1207.00,67.01
1206.00,65.82
1205.00,64.63
1204.00,63.45
1203.00,62.27
1202.00,61.10
1201.00,59.90
1200.00,58.67
1199.00,57.42
1198.00,56.14
1197.00,54.85
1196.00,53.56
1195.00,52.31
1194.00,51.11
1193.00,49.96
1192.00,48.86
1191.00,47.86
1190.00,46.99
1189.00,46.29
1188.00,45.80
1187.00,45.54
1186.00,45.55
1185.00,45.80
1184.00,46.27
1183.00,46.94
1182.00,47.75
1181.00,48.65
1180.00,49.60
1179.00,50.57
1178.00,51.57
1177.00,52.54
1176.00,53.49
1175.00,54.42
1174.00,55.31
1173.00,56.14
1172.00,56.89
1171.00,57.57
1170.00,58.17
1169.00,58.72
1168.00,59.20
1167.00,59.63
1166.00,59.99
1165.00,60.27
1164.00,60.48
1163.00,60.63
1162.00,60.71
1161.00,60.74
1160.00,60.71
1159.00,60.64
1158.00,60.55
1157.00,60.43
1156.00,60.32
1155.00,60.24
1154.00,60.19
1153.00,60.15
1152.00,60.10
1151.00,60.04
1150.00,59.99
1149.00,59.94
1148.00,59.87
1147.00,59.74
1146.00,59.56
1145.00,59.32
1144.00,59.03
1143.00,58.70
1142.00,58.33
1141.00,57.93
1140.00,57.49
1139.00,57.01
1138.00,56.50
1137.00,55.93
1136.00,55.30
1135.00,54.61
1134.00,53.87
1133.00,53.07
1132.00,52.19
1131.00,51.24
1130.00,50.26
1129.00,49.22
1128.00,48.15
1127.00,47.07
1126.00,45.97
1125.00,44.86
1124.00,43.74
1123.00,42.66
1122.00,41.62
1121.00,40.62
1120.00,39.69
1119.00,38.85
1118.00,38.11
1117.00,37.46
1116.00,36.89
1115.00,36.42
1114.00,36.05
1113.00,35.76
1112.00,35.53
1111.00,35.36
1110.00,35.25
1109.00,35.16
1108.00,35.09
1107.00,35.05
1106.00,35.04
1105.00,35.04
1104.00,35.03
1103.00,35.04
1102.00,35.08
1101.00,35.11
1100.00,35.12
1099.00,35.13
1098.00,35.15
1097.00,35.15
1096.00,35.14
1095.00,35.12
1094.00,35.09
1093.00,35.06
1092.00,35.03
1091.00,35.02
1090.00,35.02
1089.00,35.03
1088.00,35.03
1087.00,35.03
1086.00,35.03
1085.00,35.02
1084.00,35.00
1083.00,35.01
1082.00,35.05
1081.00,35.09
1080.00,35.13
1079.00,35.20
1078.00,35.28
1077.00,35.36
1076.00,35.43
1075.00,35.50
1074.00,35.58
1073.00,35.65
1072.00,35.70
1071.00,35.76
1070.00,35.82
1069.00,35.86
1068.00,35.88
1067.00,35.91
1066.00,35.94
1065.00,35.97
1064.00,35.99
1063.00,36.03
1062.00,36.09
1061.00,36.15
1060.00,36.19
1059.00,36.23
1058.00,36.28
1057.00,36.32
1056.00,36.37
1055.00,36.42
1054.00,36.49
1053.00,36.55
1052.00,36.63
1051.00,36.72
1050.00,36.85
1049.00,36.97
1048.00,37.07
1047.00,37.16
1046.00,37.26
1045.00,37.35
1044.00,37.44
1043.00,37.53
1042.00,37.63
1041.00,37.70
1040.00,37.75
1039.00,37.78
1038.00,37.79
1037.00,37.78
1036.00,37.76
1035.00,37.72
1034.00,37.68
1033.00,37.62
1032.00,37.53
1031.00,37.43
1030.00,37.34
1029.00,37.25
1028.00,37.16
1027.00,37.09
1026.00,37.04
1025.00,36.98
1024.00,36.89
1023.00,36.80
1022.00,36.72
1021.00,36.68
1020.00,36.71
1019.00,36.87
1018.00,37.20
1017.00,37.67
1016.00,38.26
1015.00,38.94
1014.00,39.66
1013.00,40.38
1012.00,41.08
1011.00,41.78
1010.00,42.45
1009.00,43.09
1008.00,43.69
1007.00,44.29
1006.00,44.88
1005.00,45.45
1004.00,45.98
1003.00,46.49
1002.00,46.98
1001.00,47.46
1000.00,47.90
999.00,48.33
998.00,48.75
997.00,49.14
996.00,49.53
995.00,49.94
994.00,50.38
993.00,50.82
992.00,51.24
991.00,51.66
990.00,52.10
989.00,52.55
988.00,53.02
987.00,53.49
986.00,53.94
985.00,54.37
984.00,54.77
983.00,55.15
982.00,55.51
981.00,55.81
980.00,56.07
979.00,56.29
978.00,56.48
977.00,56.64
976.00,56.77
975.00,56.90
974.00,57.03
973.00,57.14
972.00,57.23
971.00,57.31
970.00,57.37
969.00,57.41
968.00,57.43
967.00,57.43
966.00,57.44
965.00,57.42
964.00,57.37
963.00,57.33
962.00,57.30
961.00,57.31
960.00,57.39
959.00,57.59
958.00,57.93
957.00,58.36
956.00,58.88
955.00,59.45
954.00,60.05
953.00,60.63
952.00,61.16
951.00,61.66
950.00,62.12
949.00,62.52
948.00,62.85
947.00,63.12
946.00,63.33
945.00,63.51
944.00,63.67
943.00,63.84
942.00,64.02
941.00,64.22
940.00,64.45
939.00,64.73
938.00,65.04
937.00,65.36
936.00,65.67
935.00,66.00
934.00,66.34
933.00,66.67
932.00,66.99
931.00,67.30
930.00,67.59
929.00,67.84
928.00,68.05
927.00,68.26
926.00,68.47
925.00,68.67
924.00,68.86
923.00,69.04
922.00,69.21
921.00,69.35
920.00,69.45
919.00,69.50
918.00,69.48
917.00,69.39
916.00,69.23
915.00,69.02
914.00,68.76
913.00,68.44
912.00,68.04
911.00,67.60
910.00,67.19
909.00,66.88
908.00,66.75
907.00,66.82
906.00,67.08
905.00,67.49
904.00,67.99
903.00,68.53
902.00,69.07
901.00,69.59
900.00,70.08
899.00,70.57
898.00,71.03
897.00,71.43
896.00,71.76
895.00,72.02
894.00,72.24
893.00,72.41
892.00,72.54
891.00,72.66
890.00,72.78
889.00,72.90
888.00,73.02
887.00,73.11
886.00,73.16
885.00,73.17
884.00,73.15
883.00,73.14
882.00,73.13
881.00,73.07
880.00,72.94
879.00,72.77
878.00,72.60
877.00,72.41
876.00,72.17
875.00,71.87
874.00,71.52
873.00,71.16
872.00,70.80
871.00,70.47
870.00,70.17
869.00,69.87
868.00,69.53
867.00,69.14
866.00,68.71
865.00,68.25
864.00,67.76
863.00,67.26
862.00,66.74
861.00,66.22
860.00,65.70
859.00,65.24
858.00,64.88
857.00,64.65
856.00,64.58
855.00,64.66
854.00,64.87
853.00,65.16
852.00,65.43
851.00,65.64
850.00,65.76
849.00,65.80
848.00,65.82
847.00,65.89
846.00,66.03
845.00,66.23
844.00,66.45
843.00,66.68
842.00,66.89
841.00,67.06
840.00,67.14
839.00,67.11
838.00,66.98
837.00,66.71
836.00,66.29
835.00,65.75
834.00,65.08
833.00,64.31
832.00,63.46
831.00,62.62
830.00,61.85
829.00,61.18
828.00,60.65
827.00,60.30
826.00,60.16
825.00,60.16
824.00,60.25
823.00,60.40
822.00,60.58
821.00,60.75
820.00,60.87
819.00,60.94
818.00,60.98
817.00,60.99
816.00,60.96
815.00,60.90
814.00,60.82
813.00,60.68
812.00,60.47
811.00,60.18
810.00,59.85
809.00,59.47
808.00,59.10
807.00,58.80
806.00,58.61
805.00,58.52
804.00,58.47
803.00,58.45
802.00,58.41
801.00,58.36
800.00,58.28
799.00,58.20
798.00,58.13
797.00,58.06
796.00,58.00
795.00,57.94
794.00,57.89
793.00,57.84
792.00,57.82
791.00,57.85
790.00,57.93
789.00,58.04
788.00,58.16
787.00,58.31
786.00,58.47
785.00,58.63
784.00,58.75
783.00,58.83
782.00,58.91
781.00,59.01
780.00,59.12
779.00,59.23
778.00,59.27
777.00,59.26
776.00,59.28
775.00,59.40
774.00,59.64
773.00,59.93
772.00,60.20
771.00,60.42
770.00,60.57
769.00,60.67
768.00,60.73
767.00,60.80
766.00,60.95
765.00,61.20
764.00,61.55
763.00,61.94
762.00,62.31
761.00,62.58
760.00,62.60
759.00,62.30
758.00,61.66
757.00,60.80
756.00,59.96
755.00,59.41
754.00,59.25
753.00,59.40
752.00,59.69
751.00,60.03
750.00,60.38
749.00,60.79
748.00,61.30
747.00,61.92
746.00,62.58
745.00,63.22
744.00,63.82
743.00,64.35
742.00,64.80
741.00,65.18
740.00,65.50
739.00,65.78
738.00,66.04
737.00,66.26
736.00,66.45
735.00,66.64
734.00,66.83
733.00,67.04
732.00,67.25
731.00,67.48
730.00,67.73
729.00,67.97
728.00,68.20
727.00,68.44
726.00,68.67
725.00,68.87
724.00,69.02
723.00,69.15
722.00,69.25
721.00,69.31
720.00,69.29
719.00,69.13
718.00,68.84
717.00,68.51
716.00,68.25
715.00,68.15
714.00,68.19
713.00,68.24
712.00,68.22
711.00,68.15
710.00,68.02
709.00,67.88
708.00,67.75
707.00,67.67
706.00,67.64
705.00,67.63
704.00,67.61
703.00,67.60
702.00,67.60
701.00,67.60
700.00,67.64
699.00,67.71
698.00,67.75
697.00,67.63
696.00,67.25
695.00,66.68
694.00,66.09
693.00,65.65
692.00,65.54
691.00,65.81
690.00,66.42
689.00,67.20
688.00,67.97
687.00,68.63
686.00,69.11
685.00,69.40
684.00,69.54
683.00,69.64
682.00,69.76
681.00,69.84
680.00,69.84
679.00,69.81
678.00,69.81
677.00,69.85
676.00,69.89
675.00,69.91
674.00,69.93
673.00,69.93
672.00,69.90
671.00,69.76
670.00,69.47
669.00,69.10
668.00,68.94
667.00,69.24
666.00,69.69
665.00,69.97
664.00,70.09
663.00,70.15
662.00,70.20
661.00,70.27
660.00,70.36
659.00,70.51
658.00,70.69
657.00,70.87
656.00,71.03
655.00,71.21
654.00,71.44
653.00,71.68
652.00,71.85
651.00,71.93
650.00,71.93
